J2FrcTrq1,J2FrcTrq2,J2FrcTrq3,J2FrcTrq4,J2FrcTrq5,J2FrcTrq6,J2FrcTrq7,J2FrcTrq8
J2Mx (Nm),J2My (Nm),J2Mz (Nm),J2RadialTorq (Nm),J2Fx (N),J2Fy (N),J2Fz (N),J2RadialForce (N)
134.095327392041,148.893341411873,590.040541288876,200.376605284078,-2308.33882594487,1209.06326329761,1.87211335819072,2605.81313797064
134.093781521458,148.890589413807,590.032473388485,200.3735258429,-2308.31465696225,1209.03995141624,1.87214375896531,2605.78091167837
134.091205112394,148.886002716214,590.019027241039,200.368393448933,-2308.27437480829,1209.00109889901,1.87219442458434,2605.72720109677
134.087598167253,148.879581267713,590.000202793687,200.361208073599,-2308.21797870912,1208.94670574497,1.87226535194546,2605.65200565379
134.082960689407,148.871324996369,589.975999972428,200.351969676895,-2308.14546758133,1208.87677195283,1.87235653670385,2605.55532454856
134.077292683194,148.861233809694,589.946418682111,200.340678207396,-2308.056840032,1208.79129752099,1.87246797327677,2605.43715675143
134.070594153922,148.849307594654,589.911458806425,200.327333602266,-2307.95209435865,1208.6902824476,1.8725996548356,2605.29750100401
134.062865107875,148.835546217659,589.871120207892,200.311935787264,-2307.83122854926,1208.57372673059,1.87275157331356,2605.13635581915
134.054105552318,148.819949524573,589.825402727858,200.294484676759,-2307.69424028228,1208.44163036779,1.87292371939691,2604.95371948101
134.044315495499,148.802517340707,589.774306186473,200.274980173731,-2307.54112692662,1208.29399335692,1.87311608253492,2604.74959004511
134.03349494666,148.78324947083,589.717830382689,200.253422169799,-2307.37188554164,1208.13081569578,1.87332865092787,2604.52396533834
134.021643916041,148.76214569916,589.655975094237,200.229810545224,-2307.18651287719,1207.95209738226,1.87356141153637,2604.27684295902
134.00876241489,148.739205789373,589.588740077614,200.204145168935,-2306.98500537354,1207.75783841451,1.87381435007194,2604.00822027697
133.99485045547,148.714429484597,589.516125068062,200.176425898538,-2306.76735916144,1207.54803879103,1.87408745100507,2603.71809443356
133.979908051067,148.68781650742,589.43812977955,200.146652580343,-2306.53357006212,1207.3226985108,1.87438069755777,2603.40646234177
133.963935216005,148.659366559892,589.354753904753,200.114825049386,-2306.28363358723,1207.08181757343,1.87469407170428,2603.07332068628
133.946931965654,148.629079323519,589.265997115028,200.080943129445,-2306.01754493891,1206.8253959793,1.87502755417322,2602.71866592351
133.928898316439,148.596954459274,589.17185906039,200.045006633074,-2305.73529900974,1206.55343372972,1.87538112444167,2602.34249428174
133.909834285858,148.562991607593,589.072339369486,200.007015361621,-2305.43689038277,1206.26593082713,1.87575476073874,2601.94480176118
133.88973989249,148.527190388378,588.967437649566,199.966969105261,-2305.12231333149,1205.96288727523,1.87614844004224,2601.52558413404
133.868615156013,148.489550401003,588.857153486454,199.924867643024,-2304.79156181988,1205.6443030792,1.87656213807688,2601.08483694467
133.846460097214,148.450071224314,588.74148644452,199.880710742831,-2304.44462950235,1205.31017824592,1.87699582931378,2600.62255550963
133.823274738011,148.40875241663,588.620436066642,199.834498161517,-2304.08150972378,1204.96051278415,1.87744948697045,2600.13873491782
133.799059101461,148.365593515746,588.494001874181,199.786229644878,-2303.70219551949,1204.59530670475,1.87792308300669,2599.63337003056
133.773813211784,148.32059403894,588.362183366932,199.735904927695,-2303.30667961528,1204.21456002096,1.87841658812701,2599.10645548174
133.747537094376,148.273753482968,588.224980023101,199.683523733781,-2302.89495442741,1203.81827274857,1.87892997177639,2598.55798567793
133.720230775832,148.225071324079,588.082391299256,199.629085776021,-2302.46701206257,1203.40644490624,1.87946320213703,2597.98795479852
133.691894283958,148.174547018005,587.934416630293,199.572590756406,-2302.02284431793,1202.97907651574,1.88001624613022,2597.39635679583
133.662527647799,148.122179999972,587.78105542939,199.514038366083,-2301.56244268111,1202.53616760221,1.88058906941581,2596.78318539528
133.632130897653,148.067969684702,587.622307087964,199.453428285396,-2301.0857983302,1202.07771819444,1.88118163638572,2596.1484340955
133.600704065098,148.011915466419,587.458170975632,199.390760183937,-2300.59290213373,1201.60372832523,1.88179391016419,2595.49209616851
133.568247183008,147.954016718848,587.288646440154,199.326033720591,-2300.08374465071,1201.11419803159,1.88242585260738,2594.81416465987
133.534760285582,147.894272795219,587.113732807395,199.259248543586,-2299.55831613061,1200.60912735515,1.88307742430135,2594.11463238885
133.500243408363,147.832683028277,586.933429381267,199.190404290546,-2299.01660651334,1200.08851634242,1.88374858455734,2593.39349194855
133.464696588264,147.76924673028,586.747735443686,199.119500588545,-2298.45860542931,1199.55236504518,1.88443929141354,2592.65073570613
133.428119863594,147.703963193008,586.556650254511,199.046537054165,-2297.88430219936,1199.00067352078,1.88514950162812,2591.88635580296
133.390513274084,147.636831687762,586.360173051497,198.971513293547,-2297.29368583483,1198.43344183253,1.8858791706833,2591.10034415481
133.35187686091,147.567851465374,586.158303050231,198.894428902456,-2296.68674503751,1197.85067005004,1.886628252778,2590.29269245202
133.312210666725,147.49702175621,585.951039444085,198.81528346634,-2296.06346819967,1197.25235824962,1.887396700827,2589.46339215973
133.271514735684,147.424341770172,585.738381404147,198.734076560393,-2295.42384340405,1196.63850651467,1.88818446646181,2588.61243451805
133.229789113475,147.349810696707,585.520328079168,198.65080774962,-2294.76785842387,1196.00911493604,1.88899150002024,2587.73981054227
133.187033847346,147.27342770481,585.296878595492,198.565476588903,-2294.09550072284,1195.36418361249,1.88981775055592,2586.8455110231
133.143248986138,147.195191943032,585.068032057004,198.478082623072,-2293.40675745515,1194.70371265108,1.89066316582304,2585.92952652682
133.098434580314,147.11510253948,584.833787545052,198.388625386971,-2292.70161546548,1194.02770216761,1.89152769228411,2584.99184739559
133.05259068199,147.03315860183,584.594144118388,198.297104405537,-2291.980061289,1193.33615228703,1.89241127510053,2584.03246374761
133.005717344974,146.949359217328,584.349100813102,198.203519193868,-2291.24208115138,1192.62906314395,1.89331385813261,2583.05136547737
132.957814624787,146.863703452793,584.098656642545,198.107869257304,-2290.4876609688,1191.90643488303,1.89423538393922,2582.04854225592
132.908882578712,146.776190354634,583.84281059726,198.010154091505,-2289.71678634794,1191.16826765952,1.89517579376852,2581.02398353106
132.858921265815,146.686818948845,583.581561644915,197.910373182528,-2288.92944258602,1190.41456163968,1.89613502756077,2579.97767852765
132.80793074699,146.595588241018,583.314908730219,197.808526006913,-2288.12561467075,1189.6453170013,1.89711302394383,2578.90961624783
132.755911084991,146.502497216347,583.042850774858,197.704612031767,-2287.30528728039,1188.86053393422,1.89810972023142,2577.81978547128
132.702862344468,146.407544839634,582.765386677405,197.598630714852,-2286.46844478374,1188.06021264079,1.89912505241495,2576.70817475551
132.648784592009,146.310730055301,582.48251531325,197.490581504669,-2285.61507124014,1187.24435333645,1.90015895516748,2575.57477243612
132.593677896174,146.212051787392,582.19423553452,197.380463840557,-2284.74515039948,1186.41295625023,1.90121136183322,2574.41956662708
132.537542327536,146.11150893958,581.90054616999,197.268277152776,-2283.85866570222,1185.5660216253,1.9022822044347,2573.24254522102
132.480377958722,146.009100395182,581.601446025007,197.154020862614,-2282.9556002794,1184.70354971952,1.90337141365492,2572.04369588953
132.422184864452,145.904825017155,581.296933881401,197.037694382475,-2282.03593695264,1183.825540806,1.90447891884907,2570.82300608344
132.36296312158,145.798681648115,580.987008497401,196.919297115984,-2281.09965823416,1182.93199517369,1.90560464803022,2569.58046303314
132.302712809138,145.690669110339,580.671668607546,196.798828458087,-2280.14674632679,1182.02291312796,1.90674852787129,2568.31605374887
132.241434008377,145.580786205773,580.350912922595,196.676287795156,-2279.17718312398,1181.09829499119,1.90791048370079,2567.02976502106
132.179126802812,145.469031716045,580.02474012944,196.551674505097,-2278.19095020983,1180.15814110335,1.90909043949543,2565.72158342063
132.115791278264,145.355404402467,579.693148891008,196.424987957455,-2277.18802885906,1179.20245182269,1.91028831788486,2564.39149529935
132.051427522908,145.239903006053,579.356137846173,196.296227513535,-2276.16840003708,1178.23122752626,1.91150404013734,2563.03948679013
131.986035627318,145.122526247516,579.013705609658,196.165392526502,-2275.13204439999,1177.24446861065,1.91273752616596,2561.6655438074
131.919615684509,145.00327282729,578.665850771938,196.032482341509,-2274.07894229458,1176.24217549256,1.91398869451712,2560.26965204744
131.852167789993,144.88214142553,578.312571899146,195.897496295812,-2273.00907375834,1175.2243486095,1.91525746237272,2558.85179698871
131.783692041819,144.759130702126,577.953867532966,195.760433718891,-2271.92241851952,1174.19098842044,1.91654374554062,2557.41196389228
131.714188540624,144.634239296712,577.589736190539,195.621293932572,-2270.81895599713,1173.14209540649,1.9178474584549,2555.95013780211
131.643657389683,144.507465828675,577.220176364357,195.480076251157,-2269.69866530094,1172.07767007158,1.91916851417298,2554.46630354548
131.57209869496,144.378808897169,576.845186522162,195.336779981553,-2268.56152523153,1170.99771294319,1.92050682436485,2552.96044573334
131.499512565157,144.248267081119,576.464765106838,195.191404423401,-2267.4075142803,1169.90222457302,1.92186229931536,2551.43254876073
131.425899111767,144.115838939239,576.078910536306,195.043948869215,-2266.23661062951,1168.79120553771,1.92323484791783,2549.88259680711
131.351258449124,143.981523010036,575.687621203416,194.894412604513,-2265.04879215227,1167.66465643961,1.92462437767099,2548.31057383685
131.275590694458,143.845317811828,575.290895475835,194.742794907962,-2263.84403641261,1166.52257790747,1.92603079467173,2546.71646359952
131.198895967947,143.70722184275,574.888731695937,194.58909505152,-2262.62232066548,1165.36497059723,1.92745400361395,2545.1002496304
131.121174392775,143.56723358077,574.481128180697,194.433312300583,-2261.38362185679,1164.19183519276,1.92889390778211,2543.46191525087
131.042426095183,143.425351483695,574.068083221568,194.275445914127,-2260.12791662342,1163.00317240662,1.93035040904792,2541.80144356879
130.962651204525,143.281573989189,573.649595084371,194.115495144869,-2258.8551812933,1161.79898298086,1.93182340786669,2540.118817479
130.881849853328,143.135899514784,573.225662009175,193.953459239415,-2257.56539188538,1160.57926768781,1.93331280327035,2538.41401966372
130.800022177345,142.988326457888,572.796282210187,193.78933743842,-2256.2585241097,1159.34402733087,1.93481849286471,2536.687032593
130.717168315618,142.838853195806,572.361453875621,193.623128976749,-2254.93455336746,1158.09326274533,1.93634037282371,2534.93783852516
130.633288410531,142.687478085744,571.92117516759,193.454833083639,-2253.59345475096,1156.8269747992,1.93787833788718,2533.16641950729
130.548382607873,142.534199464831,571.475444221973,193.28444898287,-2252.23520304374,1155.545164394,1.9394322813518,2531.37275737569
130.462451056896,142.379015650125,571.024259148298,193.11197589293,-2250.85977272056,1154.24783246568,1.9410020950701,2529.55683375633
130.375493910379,142.221924938631,570.567618029618,192.937413027191,-2249.46713794747,1152.93497998539,1.94258766944651,2527.71863006536
130.287511324686,142.062925607317,570.105518922379,192.760759594089,-2248.05727258184,1151.60660796039,1.94418889342398,2525.85812750957
130.19850345983,141.902015913122,569.637959856297,192.5820147973,-2246.6301501724,1150.26271743493,1.94580565449243,2523.97530708691
130.108470479534,141.739194092976,569.164938834231,192.401177835922,-2245.18574395932,1148.9033094911,1.94743783867457,2522.07014958699
130.017412551297,141.574458363814,568.686453832053,192.218247904671,-2243.7240268742,1147.52838524976,1.94908533052063,2520.14263559158
129.925329846459,141.407806922591,568.202502798506,192.033224194064,-2242.24497154018,1146.13794587141,1.95074801310628,2518.19274547512
129.83222254026,141.239237946293,567.713083655086,191.846105890615,-2240.74855027196,1144.73199255713,1.95242576803093,2516.22045940528
129.738090811913,141.068749591959,567.218194295901,191.656892177034,-2239.23473507586,1143.31052654949,1.9541184754049,2514.22575734343
129.642934844668,140.896339996698,566.717832587537,191.465582232432,-2237.70349764988,1141.87354913349,1.95582601384581,2512.20861904525
129.546754825876,140.722007277697,566.211996368922,191.27217523252,-2236.15480938377,1140.42106163754,1.95754826048181,2510.16902406126
129.449550947059,140.545749532244,565.700683451182,191.076670349824,-2234.58864135904,1138.95306543432,1.95928509093395,2508.10695173732
129.351323403979,140.367564837745,565.183891617514,190.879066753899,-2233.00496434908,1137.46956194188,1.9610363793193,2506.02238121528
129.252072396708,140.187451251739,564.661618623036,190.679363611542,-2231.40374881921,1135.97055262449,1.9628019982429,2503.91529143349
129.151798129695,140.005406811914,564.133862194644,190.477560087016,-2229.78496492673,1134.45603899372,1.96458181879231,2501.78566112739
129.050500811836,139.821429536129,563.600620030885,190.273655342279,-2228.148582521,1132.92602260937,1.96637571053273,2499.63346883014
128.948180656552,139.635517422431,563.061889801788,190.067648537211,-2226.49457114348,1131.38050508052,1.96818354149897,2497.45869287315
128.84483788185,139.447668449071,562.517669148743,189.859538829847,-2224.82290002788,1129.81948806655,1.97000517819279,2495.26131138673
128.740472710405,139.257880574525,561.967955684337,189.64932537662,-2223.13353810016,1128.24297327812,1.97184048557878,2493.0413023007
128.635085369629,139.06615173751,561.412746992218,189.437007332601,-2221.42645397862,1126.65096247827,1.97368932707363,2490.79864334499
128.528676091745,138.87247985701,560.852040626935,189.22258385175,-2219.70161597402,1125.04345748341,1.97555156454226,2488.53331205027
128.421245113862,138.676862832289,560.285834113801,189.006054087165,-2217.95899208962,1123.42046016443,1.97742705829614,2486.24528574862
128.312792678051,138.479298542914,559.714124948728,188.787417191342,-2216.19855002129,1121.78197244773,1.9793156670811,2483.93454157415
128.203319031418,138.279784848774,559.136910598088,188.566672316437,-2214.4202571576,1120.12799631632,1.98121724807697,2481.60105646366
128.092824426186,138.078319590102,558.554188498548,188.343818614533,-2212.62408057987,1118.45853381091,1.98313165688819,2479.24480715728
127.981309119765,137.874900587497,557.965956056917,188.118855237908,-2210.80998706233,1116.77358703098,1.98505874754119,2476.86577019922
127.868773374837,137.669525641944,557.372210650002,187.891781339321,-2208.97794307215,1115.07315813593,1.9869983724725,2474.46392193835
127.75521745943,137.462192534833,556.772949624435,187.662596072286,-2207.12791476958,1113.35724934618,1.98895038253156,2472.03923852896
127.640641646999,137.252899027989,556.168170296522,187.431298591364,-2205.25986800805,1111.62586294431,1.99091462696518,2469.59169593144
127.525046216505,137.041642863686,555.557869952086,187.197888052456,-2203.37376833423,1109.87900127617,1.99289095341896,2467.12126991301
127.408431452496,136.828421764674,554.942045846301,186.962363613099,-2201.46958098822,1108.11666675206,1.99487920792913,2464.62793604839
127.290797645187,136.613233434204,554.320695203536,186.724724432776,-2199.54727090356,1106.3388618479,1.99687923491257,2462.11166972057
127.172145090546,136.396075556045,553.693815217189,186.484969673218,-2197.60680270743,1104.54558910636,1.99889087716775,2459.57244612154
127.05247409037,136.176945794518,553.061403049523,186.243098498729,-2195.64814072072,1102.73685113808,2.00091397585962,2457.01024025303
126.931784952374,135.955841794509,552.423455831504,185.999110076498,-2193.67124895815,1100.91265062283,2.00294837052382,2454.42502692729
126.810077990271,135.732761181503,551.779970662634,185.753003576936,-2191.67609112842,1099.07299031076,2.00499389905141,2451.8167807678
126.687353523858,135.507701561605,551.130944610781,185.504778174008,-2189.66263063431,1097.21787302353,2.00705039768545,2449.18547621013
126.563611879101,135.280660521565,550.476374712017,185.254433045568,-2187.63083057282,1095.34730165562,2.00911770101993,2446.53108750266
126.438853388221,135.051635628808,549.816257970446,185.001967373713,-2185.5806537353,1093.46127917549,2.0111956419818,2443.85358870742
126.313078389778,134.820624431454,549.150591358035,184.747380345133,-2183.51206260758,1091.55980862689,2.01328405183745,2441.15295370085
126.186287228762,134.587624458348,548.479371814439,184.490671151472,-2181.42501937013,1089.64289313005,2.01538276017945,2438.42915617469
126.058480256676,134.35263321909,547.802596246836,184.231838989698,-2179.31948589819,1087.71053588295,2.0174915949186,2435.68216963674
125.929657831628,134.115648204059,547.120261529751,183.970883062472,-2177.1954237619,1085.76274016266,2.01961038228086,2432.91196741175
125.799820318419,133.876666884441,546.43236450488,183.707802578536,-2175.05279422649,1083.79950932652,2.02173894680109,2430.11852264224
125.66896808863,133.635686712261,545.738901980922,183.442596753096,-2172.8915582524,1081.82084681352,2.02387711131331,2427.30180828938
125.537101520716,133.392705120405,545.039870733395,183.175264808221,-2170.71167649545,1079.82675614554,2.02602469694787,2424.46179713385
125.404221000093,133.147719522658,544.335267504465,182.90580597325,-2168.51310930699,1077.81724092871,2.02818152312148,2421.59846177673
125.27032691923,132.900727313723,543.625089002767,182.634219485198,-2166.2958167341,1075.7923048547,2.03034740753446,2418.71177464043
125.135419677745,132.651725869266,542.909331903227,182.360504589179,-2164.05975851972,1073.75195170206,2.03252216615925,2415.80170796951
124.999499682492,132.400712545931,542.187992846885,182.084660538837,-2161.80489410286,1071.69618533757,2.03470561323672,2412.86823383172
124.862567347657,132.14768468138,541.461068440708,181.806686596774,-2159.53118261874,1069.62500971761,2.03689756127102,2409.91132411881
124.724623094853,131.892639594326,540.728555257419,181.526582035006,-2157.23858289899,1067.53842888946,2.0390978210169,2406.93095054757
124.585667353208,131.635574584556,539.990449835307,181.244346135405,-2154.92705347186,1065.43644699275,2.04130620148183,2403.92708466073
124.445700559471,131.376486932973,539.24674867805,180.95997819017,-2152.59655256237,1063.31906826079,2.04352250991064,2400.89969782796
124.304723158095,131.115373901624,538.497448254528,180.673477502298,-2150.24703809251,1061.18629702198,2.04574655178303,2397.84876124681
124.162735601343,130.852232733734,537.742544998641,180.384843386057,-2147.87846768149,1059.03813770122,2.04797813080739,2394.77424594375
124.01973834938,130.587060653742,536.982035309125,180.094075167488,-2145.49079864587,1056.87459482132,2.05021704891004,2391.67612277516
123.875731870371,130.319854867331,536.215915549364,179.801172184895,-2143.08398799983,1054.6956730044,2.05246310623443,2388.55436242834
123.730716640579,130.050612561469,535.444182047204,179.506133789363,-2140.65799245534,1052.50137697336,2.05471610112656,2385.40893542254
123.584693144464,129.779330904437,534.666831094769,179.20895934527,-2138.2127684224,1050.29171155327,2.05697583013773,2382.23981211005
123.43766187478,129.506007045872,533.883858948268,178.909648230826,-2135.74827200928,1048.0666816729,2.05924208800616,2379.04696267717
123.289623332679,129.230638116798,533.095261827814,178.60819983861,-2133.26445902269,1045.8262923661,2.06151466766013,2375.83035714539
