J4FrcTrq1,J4FrcTrq2,J4FrcTrq3,J4FrcTrq4,J4FrcTrq5,J4FrcTrq6,J4FrcTrq7,J4FrcTrq8
J4Mx (Nm),J4My (Nm),J4Mz (Nm),J4RadialTorq (Nm),J4Fx (N),J4Fy (N),J4Fz (N),J4RadialForce (N)
104.994985927904,264.366960129456,3.78814640972552,284.453575611364,565.559852244254,-217.351174828292,-376.831489372791,605.887348993013
104.993408429745,264.361937344287,3.78804984344763,284.448325236975,565.549165629456,-217.347822842711,-376.831142842164,605.876171208804
104.990779248221,264.353566091319,3.78788890244539,284.439574659269,565.531354725307,-217.342236169034,-376.830564893116,605.857541671635
104.987098343309,264.341846386565,3.78766358892229,284.427323880119,565.506419566519,-217.33441473295,-376.829754919267,605.831460389982
104.982365658983,264.32677825246,3.78737390596357,284.411572902162,565.474360201725,-217.324358430436,-376.828712071687,605.797927375747
104.976581123221,264.308361717876,3.78701985753665,284.392321728818,565.435176693514,-217.312067127774,-376.827435258899,605.756942644301
104.969744648012,264.286596818146,3.78660144849161,284.369570364317,565.388869118479,-217.297540661564,-376.825923146882,605.70850621453
104.96185612937,264.261483595091,3.78611868456186,284.34331881372,565.335437567277,-217.280778838752,-376.824174159064,605.652618108895
104.952915447345,264.233022097047,3.78557157236479,284.313567082959,565.274882144694,-217.261781436649,-376.822186476332,605.589278353509
104.942922466034,264.201212378909,3.78496011940268,284.28031517887,565.207202969724,-217.240548202967,-376.819958037028,605.518486978213
104.931877033603,264.166054502163,3.78428433406363,284.243563109238,565.13240017566,-217.217078855848,-376.817486536953,605.440244016674
104.919778982301,264.127548534939,3.78354422562264,284.203310882846,565.050473910187,-217.191373083903,-376.814769429366,605.354549506484
104.906628128479,264.085694552058,3.7827398042428,284.159558509528,564.961424335501,-217.163430546255,-376.811803924989,605.261403489282
104.892424272617,264.040492635087,3.78187108097654,284.112306000226,564.865251628422,-217.133250872581,-376.808586992008,605.160806010878
104.877167199344,263.991942872401,3.78093806776708,284.061553367055,564.761955980528,-217.100833663167,-376.805115356074,605.052757121388
104.860856677463,263.940045359249,3.77994077744993,284.007300623372,564.651537598294,-217.066178488953,-376.801385500306,604.937256875385
104.843492459982,263.884800197822,3.77887922375451,283.949547783846,564.533996703246,-217.029284891599,-376.797393665295,604.814305332057
104.825074284141,263.826207497325,3.7777534213059,283.888294864542,564.409333532119,-216.990152383539,-376.793135849107,604.683902555378
104.805601871443,263.764267374063,3.77656338562671,283.823541883001,564.277548337035,-216.948780448055,-376.788607807285,604.546048614291
104.785074927692,263.698979951522,3.77530913313899,283.755288858332,564.138641385681,-216.905168539335,-376.783805052853,604.400743582897
104.763493143022,263.630345360457,3.77399068116634,283.683535811301,563.992612961505,-216.859316082556,-376.778722856317,604.247987540662
104.740856191937,263.558363738986,3.77260804793612,283.608282764435,563.839463363918,-216.811222473957,-376.773356245678,604.087780572627
104.717163733353,263.483035232692,3.77116125258166,283.529529742124,563.679192908509,-216.760887080919,-376.767700006424,603.920122769639
104.692415410633,263.404359994724,3.76965031514474,283.44727677073,563.511801927271,-216.708309242053,-376.761748681546,603.745014228581
104.666610851637,263.322338185906,3.7680752565781,283.361523878703,563.337290768833,-216.653488267287,-376.755496571534,603.562455052625
104.63974966876,263.236969974849,3.76643609874802,283.272271096696,563.155659798708,-216.596423437964,-376.748937734388,603.372445351489
104.611831458986,263.14825553807,3.76473286443706,283.179518457696,562.966909399546,-216.537114006929,-376.742065985622,603.174985241702
104.58285580393,263.056195060118,3.76296557734696,283.083265997148,562.771039971406,-216.475559198643,-376.73487489827,602.970074846889
104.552822269893,262.960788733694,3.76113426210152,282.983513753092,562.568051932024,-216.411758209277,-376.727357802892,602.757714298061
104.521730407914,262.862036759793,3.7592389442497,282.880261766302,562.35794571711,-216.345710206829,-376.719507787581,602.537903733919
104.489579753824,262.759939347832,3.75727965026878,282.77351008043,562.140721780637,-216.277414331234,-376.711317697972,602.310643301162
104.456369828302,262.654496715798,3.75525640756764,282.663258742158,561.916380595154,-216.206869694479,-376.702780137247,602.075933154817
104.422100136935,262.545709090395,3.75316924449013,282.549507801352,561.684922652103,-216.134075380731,-376.693887466144,601.833773458571
104.386770170279,262.433576707191,3.75101819031858,282.432257311221,561.446348462149,-216.059030446457,-376.684631802967,601.58416438512
104.350379403918,262.318099810778,3.74880327527737,282.311507328481,561.200658555513,-215.981733920552,-376.675005023594,601.327106116521
104.312927298533,262.199278654934,3.74652453053668,282.18725791353,560.947853482335,-215.902184804479,-376.664998761486,601.062598844568
104.274413299964,262.077113502787,3.74418198821626,282.059509130617,560.687933813017,-215.820382072402,-376.654604407701,600.790642771164
104.234836839282,261.951604626985,3.74177568138936,281.928261048027,560.420900138608,-215.736324671327,-376.643813110897,600.511238108714
104.194197332857,261.822752309876,3.73930564408678,281.793513738263,560.146753071176,-215.650011521252,-376.632615777353,600.224385080528
104.152494182431,261.690556843681,3.73677191130091,281.655267278241,559.865493244203,-215.561441515311,-376.621003070971,599.930083921229
104.109726775192,261.555018530689,3.73417451899009,281.513521749478,559.577121312984,-215.470613519931,-376.608965413299,599.628334877181
104.065894483852,261.416137683437,3.73151350408285,281.368277238302,559.281637955042,-215.377526374992,-376.596492983534,599.31913820692
104.020996666722,261.273914624913,3.72878890448237,281.219533836048,558.979043870548,-215.282178893987,-376.583575718544,599.002494181597
103.975032667795,261.128349688749,3.72600075907104,281.067291639278,558.669339782756,-215.184569864186,-376.570203312879,598.678403085442
103.928001816827,260.979443219432,3.72314910771512,280.911550749988,558.352526438442,-215.084698046811,-376.556365218785,598.346865216221
103.87990342942,260.827195572506,3.72023399126941,280.752311275836,558.028604608362,-214.982562177205,-376.542050646223,598.007880885722
103.830736807112,260.671607114791,3.71725545158221,280.589573330364,557.697575087713,-214.878160965016,-376.527248562886,597.661450420239
103.780501237461,260.512678224601,3.71421353150019,280.423337033231,557.359438696609,-214.771493094376,-376.511947694213,597.307574161074
103.729195994138,260.350409291963,3.71110827487346,280.253602510446,557.014196280562,-214.662557224091,-376.496136523413,596.946252465049
103.676820337017,260.184800718854,3.70793972656076,280.080369894614,556.661848710982,-214.551351987826,-376.479803291478,596.577485705027
103.623373512273,260.015852919424,3.70470793243463,279.903639325178,556.302396885677,-214.437875994312,-376.46293599721,596.201274270444
103.568854752474,259.84356632024,3.70141293938685,279.723410948673,555.935841729373,-214.322127827531,-376.44552239724,595.817618567853
103.513263276681,259.667941360529,3.69805479533386,279.53968491898,555.562184194238,-214.20410604693,-376.427550006044,595.426519021479
103.456598290549,259.48897849242,3.69463354922223,279.352461397589,555.181425260415,-214.083809187624,-376.409006095977,595.027976073788
103.398858986429,259.306678181201,3.69114925103444,279.161740553866,554.793565936575,-213.961235760612,-376.389877697292,594.621990186058
103.340044543473,259.121040905573,3.68760195179453,278.967522565325,554.398607260468,-213.836384252989,-376.370151598161,594.208561838972
103.280154127739,258.932067157916,3.68399170357394,278.7698076179,553.996550299495,-213.709253128169,-376.349814344712,593.787691533212
103.219186892301,258.739757444546,3.68031855949748,278.568595906233,553.58739615128,-213.579840826108,-376.328852241046,593.359379790072
103.157141977358,258.544112285996,3.67658257374933,278.363887633957,553.171145944261,-213.448145763537,-376.307251349272,592.92362715208
103.094018510349,258.345132217286,3.67278380157916,278.15568301399,552.74780083829,-213.314166334189,-376.284997489534,592.480434183625
103.029815606067,258.142817788207,3.66892229930838,277.94398226883,552.317362025237,-213.177900909044,-376.262076240048,592.029801471601
102.964532366774,257.937169563602,3.66499812433639,277.728785630858,551.879830729611,-213.039347836565,-376.238472937125,591.571729626065
102.898167882322,257.728188123659,3.66101133514704,277.510093342644,551.435208209188,-212.898505442946,-376.214172675213,591.106219280893
102.830721230272,257.515874064206,3.65696199131505,277.28790565726,550.98349575565,-212.755372032363,-376.189160306928,590.633271094463
102.762191476021,257.300227997008,3.65285015351269,277.062222838601,550.524694695237,-212.609945887229,-376.163420443094,590.15288575034
102.692577672923,257.081250550073,3.64867588351633,276.833045161698,550.0588063894,-212.462225268453,-376.136937452776,589.665063957968
102.621878862417,256.858942367961,3.64443924421332,276.600372913054,549.58583223548,-212.312208415702,-376.109695463326,589.169806453384
102.550094074161,256.633304112097,3.64014029960874,276.364206390971,549.105773667381,-212.159893547672,-376.081678360418,588.667113999935
102.477222326156,256.404336461088,3.63577911483243,276.124545905893,548.618632156263,-212.005278862357,-376.052869788096,588.156987389009
102.403262624886,256.17204011105,3.63135575614589,275.881391780741,548.124409211241,-211.848362537329,-376.023253148812,587.639427440773
102.328213965451,255.936415775929,3.62687029094954,275.634744351267,547.6231063801,-211.689142730013,-375.992811603478,587.11443500493
102.252075331705,255.69746418784,3.62232278778977,275.384603966403,547.114725250008,-211.527617577983,-375.961528071513,586.582010961476
102.174845696398,255.455186097402,3.61771331636633,275.13097098862,546.599267448256,-211.363785199239,-375.929385230887,586.042156221479
102.096524021317,255.209582274077,3.61304194753963,274.873845794292,546.076734642995,-211.197643692513,-375.896365518177,585.494871727862
102.017109257428,254.96065350652,3.60830875333816,274.613228774059,545.547128543984,-211.02919113756,-375.862451128619,584.940158456196
101.936600345027,254.70840060293,3.60351380696614,274.349120333206,545.01045090336,-210.858425595464,-375.827624016163,584.378017415509
101.854996213886,254.452824391402,3.59865718281096,274.081520892037,544.466703516402,-210.685345108948,-375.791865893528,583.808449649107
101.772295783406,254.193925720291,3.593738956451,273.810430886258,543.915888222317,-210.509947702681,-375.755158232264,583.231456235393
101.688497962768,253.931705458579,3.58875920466332,273.535850767365,543.358006905032,-210.332231383599,-375.717482262808,582.647038288716
101.603601651089,253.666164496237,3.58371800543153,273.25778100304,542.793061493994,-210.152194141226,-375.678818974553,582.055196960215
101.51760573758,253.39730374461,3.57861543795374,272.976222077544,542.221053964985,-209.969833947998,-375.639149115909,581.455933438682
101.430509101707,253.125124136786,3.57345158265047,272.691174492126,541.641986340941,-209.785148759593,-375.598453194367,580.849248951434
101.342310613349,252.849626627989,3.56822652117283,272.402638765424,541.05586069279,-209.598136515269,-375.556711476578,580.235144765197
101.253009132968,252.570812195959,3.56294033641057,272.110615433884,540.462679140288,-209.408795138201,-375.513903988415,579.613622186997
101.16260351177,252.288681841351,3.55759311250037,271.815105052177,539.862443852876,-209.217122535827,-375.470010515054,578.984682565067
101.071092591877,252.00323658813,3.55218493483409,271.516108193619,539.255157050542,-209.023116600192,-375.425010601042,578.348327289759
100.978475206497,251.714477483975,3.54671589006715,271.213625450602,538.640821004694,-208.826775208309,-375.378883550385,577.704557794477
100.884750180097,251.422405600683,3.54118606612696,270.907657435028,538.01943803904,-208.628096222511,-375.331608426626,577.053375556607
100.789916328578,251.127022034584,3.5355955522214,270.598204778746,537.391010530485,-208.427077490817,-375.283164052926,576.394782098467
100.693972459456,250.828327906955,3.52994443884743,270.285268133993,536.755540910031,-208.223716847294,-375.233529012152,575.728778988268
100.596917372037,250.526324364441,3.52423281779967,269.968848173847,536.113031663692,-208.018012112439,-375.182681646968,575.055367841085
100.498749857602,250.221012579482,3.51846078217915,269.648945592677,535.463485333412,-207.809961093546,-375.130600059925,574.374550319829
100.399468699593,249.91239375074,3.51262842640208,269.325561106601,534.806904518006,-207.599561585089,-375.077262113554,573.68632813625
100.299072673797,249.600469103536,3.50673584620861,268.998695453954,534.143291874095,-207.386811369118,-375.02264543047,572.99070305193
100.197560548538,249.285239890288,3.5007831386718,268.668349395749,533.472650117062,-207.171708215634,-374.96672739346,572.2876768793
100.094931084865,248.966707390955,3.49477040220652,268.334523716158,532.794982022017,-206.954249882999,-374.9094851456,571.577251482664
99.9911830367501,248.644872913484,3.48869773657848,267.997219222983,532.110290424762,-206.734434118328,-374.850895590353,570.859428779231
99.8863151512829,248.319737794266,3.48256524291332,267.656436748146,531.418578222785,-206.512258657898,-374.790935391678,570.134210740166
99.7803261688675,247.991303398589,3.47637302370567,267.312177148174,530.719848376239,-206.287721227556,-374.729580974147,569.401599391638
99.6732148234257,247.659571121103,3.47012118282844,266.96444130469,530.014103908955,-206.060819543136,-374.666808523056,568.661596815894
99.5649798425997,247.324542386286,3.46380982554194,266.613230124919,529.30134790945,-205.831551310879,-374.602593984547,567.914205152331
99.4556199479573,246.986218648913,3.45743905850326,266.258544542182,528.581583531948,-205.599914227854,-374.536913065729,567.159426598591
99.3451338552004,246.644601394534,3.45100898977556,265.900385516411,527.854813997411,-205.365905982394,-374.469741234803,566.397263411654
99.2335202743753,246.299692139951,3.44451972883754,265.53875403466,527.121042594585,-205.129524254523,-374.401053721191,565.627717908952
99.1207779100859,245.951492433707,3.43797138659275,265.173651111623,526.380272681047,-204.890766716402,-374.330825515669,564.850792469488
99.0069054617078,245.60000385657,3.43136407537922,264.805077790156,525.632507684267,-204.64963103277,-374.259031370502,564.066489534966
98.8919016236083,245.245228022028,3.42469790897892,264.43303514181,524.877751102681,-204.406114861394,-374.185645799585,563.274811610937
98.7757650853635,244.887166576788,3.41797300262736,264.057524267359,524.116006506767,-204.160215853521,-374.110643078588,562.475761267949
98.6584945319844,244.525821201281,3.41118947302325,263.678546297339,523.347277540143,-203.911931654346,-374.033997245096,561.669341142711
98.5400886441382,244.161193610159,3.40434743833814,263.296102392596,522.571567920658,-203.661259903464,-373.955682098768,560.855553939266
98.420546098378,243.793285552819,3.39744701822611,262.910193744825,521.788881441507,-203.408198235347,-373.875671201488,560.03440243018
98.2998655673726,243.422098813909,3.39048833383358,262.520821577132,520.999221972349,-203.152744279818,-373.793937877524,559.205889457733
98.1780457201379,243.047635213854,3.38347150780905,262.127987144586,520.202593460438,-202.894895662527,-373.710455213692,558.370017935127
98.0550852222737,242.669896609377,3.37639666431298,261.731691734786,519.398999931758,-202.634650005443,-373.62519605952,557.526790847704
97.9309827361981,242.288884894028,3.3692639290276,261.331936668424,518.588445492175,-202.372004927331,-373.538133027426,556.676211254171
97.8057369213902,241.904601998722,3.36207342916683,260.928723299863,517.77093432859,-202.106958044262,-373.449238492883,555.818282287841
97.6793464346304,241.517049892271,3.35482529348622,260.522053017709,516.94647071011,-201.839506970099,-373.358484594607,554.953007157877
97.5518099302472,241.126230581929,3.34751965229288,260.111927245401,516.115058989226,-201.569649317012,-373.265843234742,554.080389150559
97.4231260603627,240.732146113938,3.3401566374555,259.698347441788,515.276703602995,-201.297382695986,-373.171286079039,553.200431630546
97.2932934751439,240.33479857408,3.33273638241436,259.281315101733,514.43140907424,-201.02270471733,-373.074784557061,552.31313804216
97.1623108230549,239.93419008823,3.32525902219137,258.860831756701,513.579180012753,-200.745612991209,-372.976309862371,551.418511910679
97.0301767511115,239.530322822918,3.31772469340009,258.436898975365,512.72002111651,-200.466105128159,-372.875832952742,550.516556843632
96.8968899051389,239.123198985891,3.31013353425592,258.009518364216,511.853937172897,-200.184178739625,-372.77332455036,549.60727653212
96.7624489300334,238.712820826681,3.30248568458612,257.578691568166,510.980933059941,-199.899831438497,-372.668755142034,548.69067475213
96.626852470023,238.299190637181,3.29478128583999,257.144420271176,510.101013747557,-199.613060839649,-372.562094979421,547.766755365875
96.4900991689333,237.882310752217,3.28702048109899,256.706706196868,509.214184298793,-199.323864560486,-372.453314079239,546.835522323132
96.3521876704572,237.462183550133,3.27920341508693,256.265551109157,508.320449871102,-199.0322402215,-372.342382223502,545.896979662599
96.2131166184229,237.038811453374,3.27133023418014,255.820956812882,507.419815717604,-198.738185446824,-372.229268959747,544.951131513261
96.0728846570697,236.612196929075,3.26340108641763,255.372925154438,506.512287188371,-198.441697864797,-372.113943601271,543.997982095759
95.9314904313214,236.18234248966,3.25541612151133,254.921458022423,505.597869731714,-198.142775108534,-371.996375227378,543.037535723782
95.7889325870676,235.749250693433,3.2473754908563,254.466557348279,504.676568895485,-197.841414816496,-371.876532683625,542.069796805459
95.6452097714416,235.312924145186,3.23927934754094,254.008225106946,503.748390328383,-197.537614633072,-371.754384582076,541.094769844766
95.5003206331071,234.873365496801,3.23112784635716,253.546463317515,502.813339781268,-197.231372209164,-371.629899301563,540.112459442941
95.3542638225427,234.430577447865,3.22292114381073,253.08127404389,501.871423108495,-196.922685202775,-371.503044987945,539.122870299914
95.2070379923322,233.984562746283,3.21465939813137,252.612659395452,500.922646269241,-196.611551279609,-371.373789554385,538.126007215739
95.0586417974565,233.535324188895,3.20634276928309,252.140621527729,499.967015328857,-196.297968113667,-371.242100681626,537.12187509205
94.9090738955873,233.082864622104,3.19797141897433,251.665162643072,499.004536460212,-195.981933387858,-371.107945818269,536.110478933507
94.7583329473847,232.627186942498,3.18954551066825,251.186284991333,498.035215945067,-195.663444794609,-370.971292181066,535.091823849274
94.6064176167982,232.168294097486,3.1810652095929,250.703990870549,497.059060175439,-195.342500036484,-370.832106755212,534.065915054494
94.4533265713672,231.70618908593,3.17253068275145,250.218282627633,496.076075654981,-195.019096826807,-370.690356294646,533.032757871774
94.2990584825294,231.240874958789,3.16394209893236,249.729162659065,495.086269000376,-194.693232890292,-370.546007322358,531.992357732689
94.1436120259261,230.772354819758,3.15529962871965,249.236633411592,494.089646942732,-194.364905963675,-370.399026130703,530.944720179288
93.986985881716,230.300631825919,3.14660344450294,248.740697382932,493.086216328993,-194.034113796359,-370.249378781719,529.889850865612
93.8291787348858,229.825709188391,3.13785372048774,248.241357122479,492.075984123347,-193.700854151056,-370.097031107453,528.827755559227
